tau,C_mean,C_var
0.000000000000000000e+00,3.906250000000000000e-02,0.000000000000000000e+00
4.476567438455604162e-03,3.915012894989643860e-02,0.000000000000000000e+00
8.953134876911208323e-03,3.923815105603530723e-02,0.000000000000000000e+00
1.342970231536681248e-02,3.932656808235227702e-02,0.000000000000000000e+00
1.790626975382241665e-02,3.941538180069710517e-02,0.000000000000000000e+00
2.238283719227802254e-02,3.950459399086913431e-02,0.000000000000000000e+00
2.685940463073362497e-02,3.959420644065295147e-02,0.000000000000000000e+00
3.133597206918922740e-02,3.968422094585422749e-02,0.000000000000000000e+00
3.581253950764483329e-02,3.977463931033568822e-02,0.000000000000000000e+00
4.028910694610043919e-02,3.986546334605329395e-02,0.000000000000000000e+00
4.476567438455604508e-02,3.995669487309250895e-02,0.000000000000000000e+00
4.924224182301164404e-02,4.004833571970481398e-02,0.000000000000000000e+00
5.371880926146724994e-02,4.014038772234432978e-02,0.000000000000000000e+00
5.819537669992285583e-02,4.023285272570458621e-02,0.000000000000000000e+00
6.267194413837845479e-02,4.032573258275555517e-02,0.000000000000000000e+00
6.714851157683406069e-02,4.041902915478072511e-02,0.000000000000000000e+00
7.162507901528966658e-02,4.051274431141443227e-02,0.000000000000000000e+00
7.610164645374527248e-02,4.060687993067931684e-02,0.000000000000000000e+00
8.057821389220087838e-02,4.069690440608104282e-02,0.000000000000000000e+00
8.505478133065648427e-02,4.075389373348307920e-02,0.000000000000000000e+00
8.953134876911209017e-02,4.081113874932879027e-02,0.000000000000000000e+00
9.400791620756768219e-02,4.086864060079052619e-02,0.000000000000000000e+00
9.848448364602328808e-02,4.092640044018752005e-02,0.000000000000000000e+00
1.029610510844788940e-01,4.098441942500903601e-02,0.000000000000000000e+00
1.074376185229344999e-01,4.104269871793750357e-02,0.000000000000000000e+00
1.119141859613901058e-01,4.110123948687186002e-02,0.000000000000000000e+00
1.163907533998457117e-01,4.116004290495094142e-02,0.000000000000000000e+00
1.208673208383013176e-01,4.121911015057698469e-02,0.000000000000000000e+00
1.253438882767569096e-01,4.127844240743924753e-02,0.000000000000000000e+00
1.298204557152125294e-01,4.133804086453773952e-02,0.000000000000000000e+00
1.342970231536681214e-01,4.139790671620703633e-02,0.000000000000000000e+00
1.387735905921237411e-01,4.145804116214021201e-02,0.000000000000000000e+00
1.432501580305793332e-01,4.151844540741289613e-02,0.000000000000000000e+00
1.477267254690349252e-01,4.157912066250740030e-02,0.000000000000000000e+00
1.522032929074905450e-01,4.164006814333700429e-02,0.000000000000000000e+00
1.566798603459461370e-01,4.171282987280484911e-02,0.000000000000000000e+00
1.611564277844017568e-01,4.179482400865201092e-02,0.000000000000000000e+00
1.656329952228573488e-01,4.187718601957229198e-02,0.000000000000000000e+00
1.701095626613129685e-01,4.195991755607483137e-02,0.000000000000000000e+00
1.745861300997685606e-01,4.204302027607391412e-02,0.000000000000000000e+00
1.790626975382241803e-01,4.212649584492225707e-02,0.000000000000000000e+00
1.835392649766797724e-01,4.221034593544433638e-02,0.000000000000000000e+00
1.880158324151353644e-01,4.229457222796993709e-02,0.000000000000000000e+00
1.924923998535909841e-01,4.237917641036780675e-02,0.000000000000000000e+00
1.969689672920465762e-01,4.246416017807947557e-02,0.000000000000000000e+00
2.014455347305021959e-01,4.254952523415327786e-02,0.000000000000000000e+00
2.059221021689577880e-01,4.263527328927842891e-02,0.000000000000000000e+00
2.103986696074134077e-01,4.272140606181932393e-02,0.000000000000000000e+00
2.148752370458689998e-01,4.280792527784997581e-02,0.000000000000000000e+00
2.193518044843245918e-01,4.289483267118861937e-02,0.000000000000000000e+00
2.238283719227802115e-01,4.298212998343243357e-02,0.000000000000000000e+00
2.283049393612358036e-01,4.306981896399243032e-02,0.000000000000000000e+00
2.327815067996914233e-01,4.315790137012857214e-02,0.000000000000000000e+00
2.372580742381470154e-01,4.324637896698493161e-02,0.000000000000000000e+00
2.417346416766026351e-01,4.333525352762505195e-02,0.000000000000000000e+00
2.462112091150582271e-01,4.342452683306755740e-02,0.000000000000000000e+00
2.506877765535138192e-01,4.351420067232176364e-02,0.000000000000000000e+00
2.551643439919694112e-01,4.360427684242355190e-02,0.000000000000000000e+00
2.596409114304250587e-01,4.369475714847142339e-02,0.000000000000000000e+00
2.641174788688806507e-01,4.378564340366259550e-02,0.000000000000000000e+00
2.685940463073362428e-01,4.387693742932941704e-02,0.000000000000000000e+00
2.730706137457918348e-01,4.396864105497580444e-02,0.000000000000000000e+00
2.775471811842474823e-01,4.406075611831394845e-02,0.000000000000000000e+00
2.820237486227030743e-01,4.415328446530111806e-02,0.000000000000000000e+00
2.865003160611586663e-01,4.424622795017665172e-02,0.000000000000000000e+00
2.909768834996142584e-01,4.432239965995767722e-02,0.000000000000000000e+00
2.954534509380698504e-01,4.439273417747109651e-02,0.000000000000000000e+00
2.999300183765254979e-01,4.446338425798796595e-02,0.000000000000000000e+00
3.044065858149810899e-01,4.453435131731396657e-02,0.000000000000000000e+00
3.088831532534366819e-01,4.460563677760692042e-02,0.000000000000000000e+00
3.133597206918922740e-01,4.467724206740533721e-02,0.000000000000000000e+00
3.178362881303479215e-01,4.474916862165696785e-02,0.000000000000000000e+00
3.223128555688035135e-01,4.482141788174764940e-02,0.000000000000000000e+00
3.267894230072591055e-01,4.489399129553010154e-02,0.000000000000000000e+00
3.312659904457146975e-01,4.496689031735301434e-02,0.000000000000000000e+00
3.357425578841702896e-01,4.504011640809014311e-02,0.000000000000000000e+00
3.402191253226259371e-01,4.511367103516961130e-02,0.000000000000000000e+00
3.446956927610815291e-01,4.518755567260331063e-02,0.000000000000000000e+00
3.491722601995371211e-01,4.527614776869950952e-02,0.000000000000000000e+00
3.536488276379927131e-01,4.542524598202091896e-02,0.000000000000000000e+00
3.581253950764483607e-01,4.557501313971940027e-02,0.000000000000000000e+00
3.626019625149039527e-01,4.572545224308229711e-02,0.000000000000000000e+00
3.670785299533595447e-01,4.587656630686253595e-02,0.000000000000000000e+00
3.715550973918151367e-01,4.602835835933901526e-02,0.000000000000000000e+00
3.760316648302707287e-01,4.618083144237735554e-02,0.000000000000000000e+00
3.805082322687263763e-01,4.633398861149077425e-02,0.000000000000000000e+00
3.849847997071819683e-01,4.648783293590140475e-02,0.000000000000000000e+00
3.894613671456375603e-01,4.664236749860172643e-02,0.000000000000000000e+00
3.939379345840931523e-01,4.679759539641640403e-02,0.000000000000000000e+00
3.984145020225487444e-01,4.695351974006430062e-02,0.000000000000000000e+00
4.028910694610043919e-01,4.711014365422085820e-02,0.000000000000000000e+00
4.073676368994599839e-01,4.722283731474911234e-02,0.000000000000000000e+00
4.118442043379155759e-01,4.727551480986236926e-02,0.000000000000000000e+00
4.163207717763711679e-01,4.732842864794291338e-02,0.000000000000000000e+00
4.207973392148268155e-01,4.738157988936763515e-02,0.000000000000000000e+00
4.252739066532824075e-01,4.743496959927091805e-02,0.000000000000000000e+00
4.297504740917379995e-01,4.748859884756595484e-02,0.000000000000000000e+00
4.342270415301935915e-01,4.754246870896623733e-02,0.000000000000000000e+00
4.387036089686491835e-01,4.759658026300706696e-02,0.000000000000000000e+00
4.431801764071048311e-01,4.765093459406717635e-02,0.000000000000000000e+00
4.476567438455604231e-01,4.770553279139048281e-02,0.000000000000000000e+00
4.521333112840160151e-01,4.776037594910791106e-02,0.000000000000000000e+00
4.566098787224716071e-01,4.781546516625931331e-02,0.000000000000000000e+00
4.610864461609272547e-01,4.788042107022325022e-02,0.000000000000000000e+00
4.655630135993828467e-01,4.796379804955051840e-02,0.000000000000000000e+00
4.700395810378384387e-01,4.804754910821955327e-02,0.000000000000000000e+00
4.745161484762940307e-01,4.813167592457558153e-02,0.000000000000000000e+00
4.789927159147496227e-01,4.821618018449386200e-02,0.000000000000000000e+00
4.834692833532052703e-01,4.830106358141354056e-02,0.000000000000000000e+00
4.879458507916608623e-01,4.838632781637151881e-02,0.000000000000000000e+00
4.924224182301164543e-01,4.847197459803660735e-02,0.000000000000000000e+00
4.968989856685720463e-01,4.855800564274370679e-02,0.000000000000000000e+00
5.013755531070276383e-01,4.864442267452824542e-02,0.000000000000000000e+00
5.058521205454832304e-01,4.873122742516070027e-02,0.000000000000000000e+00
5.103286879839388224e-01,4.881842163418131930e-02,0.000000000000000000e+00
5.148052554223945254e-01,4.895792841489166047e-02,0.000000000000000000e+00
5.192818228608501174e-01,4.910455904101038160e-02,0.000000000000000000e+00
5.237583902993057094e-01,4.925184754042391533e-02,0.000000000000000000e+00
5.282349577377613015e-01,4.939979686474806064e-02,0.000000000000000000e+00
5.327115251762168935e-01,4.954840997884135678e-02,0.000000000000000000e+00
5.371880926146724855e-01,4.969768986086443852e-02,0.000000000000000000e+00
5.416646600531280775e-01,4.984763950233979390e-02,0.000000000000000000e+00
5.461412274915836695e-01,4.999826190821169553e-02,0.000000000000000000e+00
5.506177949300392616e-01,5.014956009690637456e-02,0.000000000000000000e+00
5.550943623684949646e-01,5.030153710039255571e-02,4.814824860968089633e-35
5.595709298069505566e-01,5.045419596424220721e-02,0.000000000000000000e+00
5.640474972454061486e-01,5.063790186389651587e-02,4.814824860968089633e-35
5.685240646838617407e-01,5.082273999510953516e-02,0.000000000000000000e+00
5.730006321223173327e-01,5.100840742149509444e-02,0.000000000000000000e+00
5.774771995607729247e-01,5.119490786377080271e-02,4.814824860968089633e-35
5.819537669992285167e-01,5.138224505934758934e-02,4.814824860968089633e-35
5.864303344376841087e-01,5.157042276240467876e-02,0.000000000000000000e+00
5.909069018761397007e-01,5.175944474396483586e-02,0.000000000000000000e+00
5.953834693145954038e-01,5.194931479196986807e-02,4.814824860968089633e-35
5.998600367530509958e-01,5.214003671135659934e-02,4.814824860968089633e-35
6.043366041915065878e-01,5.233161432413302450e-02,0.000000000000000000e+00
6.088131716299621798e-01,5.242805371713139817e-02,0.000000000000000000e+00
6.132897390684177719e-01,5.246027047283944450e-02,0.000000000000000000e+00
6.177663065068733639e-01,5.249263177231564687e-02,0.000000000000000000e+00
6.222428739453289559e-01,5.252513826407038955e-02,4.814824860968089633e-35
6.267194413837845479e-01,5.255779059952368770e-02,4.814824860968089633e-35
6.311960088222401399e-01,5.259058943301821165e-02,4.814824860968089633e-35
6.356725762606958430e-01,5.262353542183236671e-02,0.000000000000000000e+00
6.401491436991514350e-01,5.265662922619357422e-02,0.000000000000000000e+00
6.446257111376070270e-01,5.268987150929137220e-02,0.000000000000000000e+00
6.491022785760626190e-01,5.272326293729080737e-02,0.000000000000000000e+00
6.535788460145182110e-01,5.284652089672862985e-02,0.000000000000000000e+00
6.580554134529738031e-01,5.301497953806101615e-02,0.000000000000000000e+00
6.625319808914293951e-01,5.318419398631004519e-02,0.000000000000000000e+00
6.670085483298849871e-01,5.335416763248074234e-02,0.000000000000000000e+00
6.714851157683405791e-01,5.352490388279217137e-02,4.814824860968089633e-35
6.759616832067962822e-01,5.369640615874581024e-02,0.000000000000000000e+00
6.804382506452518742e-01,5.386867789719398253e-02,4.814824860968089633e-35
6.849148180837074662e-01,5.404172255040886469e-02,4.814824860968089633e-35
6.893913855221630582e-01,5.421554358615156277e-02,4.814824860968089633e-35
6.938679529606186502e-01,5.437887835931165537e-02,0.000000000000000000e+00
6.983445203990742423e-01,5.448410891914286930e-02,0.000000000000000000e+00
7.028210878375298343e-01,5.458981160663898408e-02,4.814824860968089633e-35
7.072976552759854263e-01,5.469598854004901339e-02,0.000000000000000000e+00
7.117742227144410183e-01,5.480264184712576453e-02,0.000000000000000000e+00
7.162507901528967214e-01,5.490977366516838071e-02,4.814824860968089633e-35
7.207273575913523134e-01,5.501738614106523734e-02,4.814824860968089633e-35
7.252039250298079054e-01,5.512548143133694234e-02,0.000000000000000000e+00
7.296804924682634974e-01,5.523406170217952382e-02,4.814824860968089633e-35
7.341570599067190894e-01,5.534618743806875990e-02,4.814824860968089633e-35
7.386336273451746814e-01,5.552878205388807331e-02,0.000000000000000000e+00
7.431101947836302735e-01,5.571219589911875769e-02,4.814824860968089633e-35
7.475867622220858655e-01,5.589643264931733191e-02,4.814824860968089633e-35
7.520633296605414575e-01,5.608149599653102640e-02,4.814824860968089633e-35
7.565398970989970495e-01,5.626738964937193221e-02,0.000000000000000000e+00
7.610164645374527526e-01,5.645411733309106672e-02,4.814824860968089633e-35
7.654930319759083446e-01,5.664168278965327208e-02,0.000000000000000000e+00
7.699695994143639366e-01,5.683008977781203036e-02,0.000000000000000000e+00
7.744461668528195286e-01,5.699806357724427480e-02,0.000000000000000000e+00
7.789227342912751206e-01,5.711212441433079906e-02,0.000000000000000000e+00
7.833993017297307127e-01,5.722669699702388757e-02,0.000000000000000000e+00
7.878758691681863047e-01,5.734178362132251461e-02,4.814824860968089633e-35
7.923524366066418967e-01,5.745738659352691430e-02,0.000000000000000000e+00
7.968290040450974887e-01,5.757350823028474507e-02,0.000000000000000000e+00
8.013055714835531917e-01,5.769015085863754555e-02,0.000000000000000000e+00
8.057821389220087838e-01,5.780731681606737782e-02,0.000000000000000000e+00
8.102587063604643758e-01,5.792500845054364411e-02,0.000000000000000000e+00
8.147352737989199678e-01,5.807673471631576156e-02,0.000000000000000000e+00
8.192118412373755598e-01,5.823506814919874458e-02,0.000000000000000000e+00
8.236884086758311518e-01,5.839411196121552239e-02,0.000000000000000000e+00
8.281649761142867439e-01,5.855386933955471912e-02,0.000000000000000000e+00
8.326415435527423359e-01,5.871434348570456901e-02,0.000000000000000000e+00
8.371181109911979279e-01,5.887553761551715670e-02,4.814824860968089633e-35
8.415946784296536309e-01,5.903745495927279624e-02,4.814824860968089633e-35
8.460712458681092230e-01,5.920009876174473634e-02,0.000000000000000000e+00
8.505478133065648150e-01,5.927446182056608087e-02,0.000000000000000000e+00
8.550243807450204070e-01,5.931548844869653780e-02,0.000000000000000000e+00
8.595009481834759990e-01,5.935669914698844807e-02,0.000000000000000000e+00
8.639775156219315910e-01,5.939809474129140870e-02,0.000000000000000000e+00
8.684540830603871830e-01,5.943967606116028202e-02,0.000000000000000000e+00
8.729306504988427751e-01,5.948144393987179340e-02,0.000000000000000000e+00
8.774072179372983671e-01,5.952339921444127491e-02,0.000000000000000000e+00
8.818837853757540701e-01,5.956554272563939489e-02,0.000000000000000000e+00
8.863603528142096621e-01,5.979568940805418675e-02,0.000000000000000000e+00
8.908369202526652542e-01,6.005082453929318220e-02,0.000000000000000000e+00
8.953134876911208462e-01,6.030710436038213412e-02,4.814824860968089633e-35
8.997900551295764382e-01,6.056453400708909640e-02,4.814824860968089633e-35
9.042666225680320302e-01,6.082311863822424669e-02,0.000000000000000000e+00
9.087431900064876222e-01,6.108286343574331756e-02,0.000000000000000000e+00
9.132197574449432143e-01,6.134377360485138153e-02,0.000000000000000000e+00
9.176963248833988063e-01,6.157838208273815062e-02,0.000000000000000000e+00
9.221728923218545093e-01,6.175388649701872568e-02,0.000000000000000000e+00
9.266494597603101013e-01,6.193017832979661602e-02,4.814824860968089633e-35
9.311260271987656933e-01,6.210726111390538901e-02,0.000000000000000000e+00
9.356025946372212854e-01,6.228513839802908569e-02,4.814824860968089633e-35
9.400791620756768774e-01,6.246381374677321963e-02,0.000000000000000000e+00
9.445557295141324694e-01,6.264329074073630987e-02,0.000000000000000000e+00
9.490322969525880614e-01,6.282357297658161532e-02,0.000000000000000000e+00
9.535088643910436534e-01,6.295987825866516951e-02,0.000000000000000000e+00
9.579854318294992455e-01,6.309630593932939735e-02,0.000000000000000000e+00
9.624619992679549485e-01,6.323334571673056015e-02,0.000000000000000000e+00
9.669385667064105405e-01,6.337100033710324487e-02,0.000000000000000000e+00
9.714151341448661325e-01,6.350927255900332136e-02,0.000000000000000000e+00
9.758917015833217246e-01,6.364816515336316205e-02,0.000000000000000000e+00
9.803682690217773166e-01,6.378768090354725029e-02,0.000000000000000000e+00
9.848448364602329086e-01,6.376017024264181432e-02,0.000000000000000000e+00
9.893214038986885006e-01,6.371324675533068804e-02,0.000000000000000000e+00
9.937979713371440926e-01,6.366611274099652495e-02,0.000000000000000000e+00
9.982745387755996846e-01,6.361876725508833208e-02,0.000000000000000000e+00
1.002751106214055277e+00,6.357120934881725638e-02,0.000000000000000000e+00
1.007227673652510980e+00,6.352343806913762769e-02,0.000000000000000000e+00
1.011704241090966461e+00,6.348211270636081038e-02,0.000000000000000000e+00
1.016180808529422164e+00,6.372311722014428748e-02,0.000000000000000000e+00
1.020657375967877645e+00,6.396520302531784330e-02,0.000000000000000000e+00
1.025133943406333348e+00,6.420837497320590337e-02,0.000000000000000000e+00
1.029610510844789051e+00,6.445263793689880172e-02,0.000000000000000000e+00
1.034087078283244532e+00,6.469799681135041114e-02,0.000000000000000000e+00
1.038563645721700235e+00,6.494445651347645343e-02,0.000000000000000000e+00
1.043040213160155716e+00,6.513930879290112663e-02,0.000000000000000000e+00
1.047516780598611419e+00,6.523877927152585410e-02,0.000000000000000000e+00
1.051993348037066900e+00,6.533869603462225117e-02,0.000000000000000000e+00
1.056469915475522603e+00,6.543906108449125403e-02,0.000000000000000000e+00
1.060946482913978084e+00,6.553987643241727945e-02,0.000000000000000000e+00
1.065423050352433787e+00,6.564114409870860922e-02,0.000000000000000000e+00
1.069899617790889490e+00,6.574286611273781611e-02,0.000000000000000000e+00
1.074376185229344971e+00,6.597979878245621710e-02,0.000000000000000000e+00
1.078852752667800674e+00,6.623639086766508477e-02,0.000000000000000000e+00
1.083329320106256155e+00,6.649413417949684435e-02,0.000000000000000000e+00
1.087805887544711858e+00,6.675303388304747176e-02,0.000000000000000000e+00
1.092282454983167339e+00,6.701309516658660037e-02,0.000000000000000000e+00
1.096759022421623042e+00,6.727432324166161826e-02,0.000000000000000000e+00
1.101235589860078523e+00,6.750594117456161503e-02,0.000000000000000000e+00
1.105712157298534226e+00,6.771680308369949775e-02,0.000000000000000000e+00
1.110188724736989929e+00,6.792861104635015967e-02,0.000000000000000000e+00
1.114665292175445410e+00,6.814136930707934137e-02,0.000000000000000000e+00
1.119141859613901113e+00,6.835508212949657769e-02,0.000000000000000000e+00
1.123618427052356594e+00,6.856975379634044909e-02,0.000000000000000000e+00
1.128094994490812297e+00,6.876026541550672722e-02,0.000000000000000000e+00
1.132571561929267778e+00,6.892271712615093138e-02,0.000000000000000000e+00
1.137048129367723481e+00,6.908589769300316208e-02,0.000000000000000000e+00
1.141524696806178962e+00,6.924981038615127260e-02,0.000000000000000000e+00
1.146001264244634665e+00,6.941445849035476900e-02,0.000000000000000000e+00
1.150477831683090368e+00,6.957984530511052146e-02,0.000000000000000000e+00
1.154954399121545849e+00,6.968963027046186365e-02,0.000000000000000000e+00
1.159430966560001552e+00,6.974525500167236269e-02,0.000000000000000000e+00
1.163907533998457033e+00,6.980112929892619278e-02,0.000000000000000000e+00
1.168384101436912736e+00,6.985725428192696151e-02,0.000000000000000000e+00
1.172860668875368217e+00,6.991363107540188304e-02,0.000000000000000000e+00
1.177337236313823920e+00,6.997026080912438495e-02,0.000000000000000000e+00
1.181813803752279401e+00,7.010747552047692788e-02,0.000000000000000000e+00
1.186290371190735105e+00,7.027889259198524807e-02,0.000000000000000000e+00
