tau,S_mean,S_var,Mz_mean,Mz_var
0.000000000000000000e+00,9.981706378129161716e-14,0.000000000000000000e+00,0.000000000000000000e+00,0.000000000000000000e+00
2.057459579006080605e-02,1.815357598338534622e-09,0.000000000000000000e+00,-3.383221355737698452e-09,0.000000000000000000e+00
4.114919158012161210e-02,3.668350435338411611e-09,0.000000000000000000e+00,-6.836772142207562845e-09,0.000000000000000000e+00
6.172378737018241468e-02,5.559862753529192468e-09,0.000000000000000000e+00,-1.036211434735157742e-08,0.000000000000000000e+00
8.229838316024322420e-02,7.490695284787195151e-09,0.000000000000000000e+00,-1.396074035049576328e-08,0.000000000000000000e+00
1.028729789503040337e-01,9.461665406372303146e-09,0.000000000000000000e+00,-1.763417355411764472e-08,0.000000000000000000e+00
1.234475747403648294e-01,1.147360748694737745e-08,0.000000000000000000e+00,-2.138396902874652292e-08,0.000000000000000000e+00
1.440221705304256528e-01,1.352737323979057457e-08,0.000000000000000000e+00,-2.521171417126968725e-08,0.000000000000000000e+00
1.645967663204864484e-01,1.562383208335030272e-08,0.000000000000000000e+00,-2.911902937692360345e-08,0.000000000000000000e+00
1.851713621105472440e-01,1.776387150929521368e-08,0.000000000000000000e+00,-3.310756872525409630e-08,0.000000000000000000e+00
2.057459579006080674e-01,1.994839745821500478e-08,0.000000000000000000e+00,-3.717902068033592821e-08,0.000000000000000000e+00
2.263205536906688631e-01,2.217833470313130639e-08,0.000000000000000000e+00,-4.133510880554849676e-08,0.000000000000000000e+00
2.468951494807296587e-01,2.445462724098090641e-08,0.000000000000000000e+00,-4.557759249321020080e-08,0.000000000000000000e+00
2.674697452707904821e-01,7.050036398822528867e-08,0.000000000000000000e+00,-7.291052431476734687e-08,0.000000000000000000e+00
2.880443410608513055e-01,1.896273342747902483e-07,0.000000000000000000e+00,-1.387561836019514324e-07,0.000000000000000000e+00
3.086189368509120734e-01,3.112306816955002853e-07,0.000000000000000000e+00,-2.059706234822224420e-07,0.000000000000000000e+00
3.291935326409728968e-01,4.353618844646996461e-07,0.000000000000000000e+00,-2.745822977721616755e-07,0.000000000000000000e+00
3.497681284310337202e-01,5.620734909110194677e-07,0.000000000000000000e+00,-3.446202517780909062e-07,0.000000000000000000e+00
3.703427242210944881e-01,6.914191417226041655e-07,0.000000000000000000e+00,-4.161141345917899971e-07,0.000000000000000000e+00
3.909173200111553115e-01,8.234535926547705885e-07,0.000000000000000000e+00,-4.890942116418175864e-07,0.000000000000000000e+00
4.114919158012161349e-01,9.582327377096980433e-07,0.000000000000000000e+00,-5.635913775057394955e-07,0.000000000000000000e+00
4.320665115912769028e-01,1.095813632797978156e-06,0.000000000000000000e+00,-6.396371689886979630e-07,0.000000000000000000e+00
4.526411073813377262e-01,1.236254519892036447e-06,0.000000000000000000e+00,-7.172637784738563812e-07,0.000000000000000000e+00
4.732157031713985496e-01,1.798604662439576214e-06,0.000000000000000000e+00,-8.932452701208469077e-07,0.000000000000000000e+00
4.937902989614593174e-01,3.092516060149906047e-06,0.000000000000000000e+00,-1.239097203175541692e-06,0.000000000000000000e+00
5.143648947515201408e-01,4.413324915179882287e-06,0.000000000000000000e+00,-1.592138606563921754e-06,0.000000000000000000e+00
5.349394905415809642e-01,5.761590364122253339e-06,0.000000000000000000e+00,-1.952518932923769057e-06,0.000000000000000000e+00
5.555140863316417876e-01,7.137883166740176365e-06,0.000000000000000000e+00,-2.320390741671243993e-06,0.000000000000000000e+00
5.760886821217026110e-01,8.542785947586328623e-06,0.000000000000000000e+00,-2.695909763583697013e-06,0.000000000000000000e+00
5.966632779117633234e-01,9.976893442644678328e-06,0.000000000000000000e+00,-3.079234966724997192e-06,0.000000000000000000e+00
6.172378737018241468e-01,1.144081275109949841e-05,0.000000000000000000e+00,-3.470528623741331517e-06,0.000000000000000000e+00
6.378124694918849702e-01,1.330781690690433812e-05,0.000000000000000000e+00,-3.919025217091096251e-06,0.000000000000000000e+00
6.583870652819457936e-01,1.990637656036105054e-05,0.000000000000000000e+00,-4.994758558736903242e-06,0.000000000000000000e+00
6.789616610720066170e-01,2.664210517064427461e-05,0.000000000000000000e+00,-6.092853935136727226e-06,0.000000000000000000e+00
6.995362568620674404e-01,3.351785416650599684e-05,0.000000000000000000e+00,-7.213776201825856101e-06,0.000000000000000000e+00
7.201108526521282638e-01,4.053653425137728839e-05,0.000000000000000000e+00,-8.357999877622468990e-06,0.000000000000000000e+00
7.406854484421889762e-01,4.770111663555368260e-05,0.000000000000000000e+00,-9.526009345505248647e-06,0.000000000000000000e+00
7.612600442322497996e-01,5.501463429399406334e-05,0.000000000000000000e+00,-1.071829905766664268e-05,0.000000000000000000e+00
7.818346400223106230e-01,6.248018325026714513e-05,0.000000000000000000e+00,-1.193537374482885281e-05,0.000000000000000000e+00
8.024092358123714464e-01,8.484028566049071234e-05,0.000000000000000000e+00,-1.447179251633868659e-05,0.000000000000000000e+00
8.229838316024322697e-01,1.078162286418077022e-04,0.000000000000000000e+00,-1.707419690490214571e-05,0.000000000000000000e+00
8.435584273924930931e-01,1.312697889057392036e-04,0.000000000000000000e+00,-1.973069932606172258e-05,0.000000000000000000e+00
8.641330231825538055e-01,1.552108950227395155e-04,0.000000000000000000e+00,-2.244242435413166078e-05,0.000000000000000000e+00
8.847076189726146289e-01,1.796496819555258367e-04,0.000000000000000000e+00,-2.521051994075314886e-05,0.000000000000000000e+00
9.052822147626754523e-01,2.045964953494989720e-04,0.000000000000000000e+00,-2.803615790085518938e-05,0.000000000000000000e+00
9.258568105527362757e-01,2.575045352220706359e-04,0.000000000000000000e+00,-3.268903415792035302e-05,0.000000000000000000e+00
9.464314063427970991e-01,3.180969864906472251e-04,0.000000000000000000e+00,-3.786296608585190546e-05,0.000000000000000000e+00
9.670060021328579225e-01,3.799490161776328864e-04,0.000000000000000000e+00,-4.314445221993124625e-05,0.000000000000000000e+00
9.875805979229186349e-01,4.430868080362646141e-04,0.000000000000000000e+00,-4.853572836600595882e-05,0.000000000000000000e+00
1.008155193712979569e+00,5.075370901201001466e-04,0.000000000000000000e+00,-5.403907680721162791e-05,0.000000000000000000e+00
1.028729789503040282e+00,5.944544313736267174e-04,0.000000000000000000e+00,-6.072143040070872896e-05,0.000000000000000000e+00
1.049304385293101216e+00,7.276120005916415215e-04,0.000000000000000000e+00,-6.978169300438335880e-05,0.000000000000000000e+00
1.069878981083161928e+00,8.635376109917354461e-04,0.000000000000000000e+00,-7.903029773652054475e-05,0.000000000000000000e+00
1.090453576873222641e+00,1.002288803816447915e-03,0.000000000000000000e+00,-8.847115979901989643e-05,0.000000000000000000e+00
1.111028172663283575e+00,1.143924316459082186e-03,0.000000000000000000e+00,-9.810827578186959348e-05,0.000000000000000000e+00
1.131602768453344288e+00,1.332536662533240343e-03,0.000000000000000000e+00,-1.097580409307446760e-04,0.000000000000000000e+00
1.152177364243405222e+00,1.592543688283710058e-03,0.000000000000000000e+00,-1.244271034631952118e-04,0.000000000000000000e+00
1.172751960033465934e+00,1.857955665169399488e-03,0.000000000000000000e+00,-1.394011022409588521e-04,0.000000000000000000e+00
1.193326555823526647e+00,2.128884949757173673e-03,0.000000000000000000e+00,-1.546863761908415962e-04,0.000000000000000000e+00
1.213901151613587581e+00,2.405446234249839898e-03,0.000000000000000000e+00,-1.702893960114336153e-04,0.000000000000000000e+00
1.234475747403648294e+00,2.846774245748755813e-03,0.000000000000000000e+00,-1.917298486795443316e-04,0.000000000000000000e+00
1.255050343193709228e+00,3.310486226919462458e-03,0.000000000000000000e+00,-2.140739770309736309e-04,0.000000000000000000e+00
1.275624938983769940e+00,3.783837719144946682e-03,0.000000000000000000e+00,-2.368825886845363118e-04,0.000000000000000000e+00
1.296199534773830875e+00,4.267029105803588421e-03,0.000000000000000000e+00,-2.601653391852857340e-04,0.000000000000000000e+00
1.316774130563891587e+00,4.963672911069661256e-03,0.000000000000000000e+00,-2.900012767521636297e-04,0.000000000000000000e+00
1.337348726353952300e+00,5.717508190189534746e-03,0.000000000000000000e+00,-3.217317915013424541e-04,0.000000000000000000e+00
1.357923322144013234e+00,6.487013979888455774e-03,0.000000000000000000e+00,-3.541219110485828675e-04,0.000000000000000000e+00
1.378497917934073946e+00,7.288958041415462968e-03,0.000000000000000000e+00,-3.876134540343589689e-04,0.000000000000000000e+00
1.399072513724134881e+00,8.420740315768615591e-03,0.000000000000000000e+00,-4.299552775386893903e-04,0.000000000000000000e+00
1.419647109514195593e+00,9.576049753939455678e-03,0.000000000000000000e+00,-4.731772906700356480e-04,0.000000000000000000e+00
1.440221705304256528e+00,1.075537543183056541e-02,0.000000000000000000e+00,-5.172977905567558050e-04,0.000000000000000000e+00
1.460796301094317240e+00,1.218582879476064543e-02,0.000000000000000000e+00,-5.675192729980517350e-04,0.000000000000000000e+00
1.481370896884377952e+00,1.383688936912837175e-02,0.000000000000000000e+00,-6.231509815426211022e-04,0.000000000000000000e+00
1.501945492674438887e+00,1.552227171499433872e-02,0.000000000000000000e+00,-6.799391460151958753e-04,0.000000000000000000e+00
1.522520088464499599e+00,1.738069331431991299e-02,0.000000000000000000e+00,-7.406786008067221209e-04,0.000000000000000000e+00
1.543094684254560534e+00,1.964315951946399991e-02,0.000000000000000000e+00,-8.100173045496939558e-04,0.000000000000000000e+00
1.563669280044621246e+00,2.195265722019398846e-02,0.000000000000000000e+00,-8.807974012874451170e-04,0.000000000000000000e+00
1.584243875834681958e+00,2.443291753715476008e-02,0.000000000000000000e+00,-9.551885447485403743e-04,0.000000000000000000e+00
1.604818471624742893e+00,2.742265617320626195e-02,0.000000000000000000e+00,-1.039108010078609564e-03,0.000000000000000000e+00
1.625393067414803605e+00,3.047454463458760393e-02,0.000000000000000000e+00,-1.124771969074160431e-03,0.000000000000000000e+00
1.645967663204864539e+00,3.380163616515986097e-02,0.000000000000000000e+00,-1.215338642732773523e-03,0.000000000000000000e+00
1.666542258994925252e+00,3.762895513687419813e-02,0.000000000000000000e+00,-1.314143098048698973e-03,0.000000000000000000e+00
1.687116854784986186e+00,4.153583531260342243e-02,0.000000000000000000e+00,-1.415001471913108566e-03,0.000000000000000000e+00
1.707691450575046899e+00,4.594080899532634876e-02,0.000000000000000000e+00,-1.522881371636311369e-03,0.000000000000000000e+00
1.728266046365107611e+00,5.070484747119097940e-02,0.000000000000000000e+00,-1.636163981059920525e-03,0.000000000000000000e+00
1.748840642155168545e+00,5.559268269866110557e-02,0.000000000000000000e+00,-1.752009530486919701e-03,0.000000000000000000e+00
1.769415237945229258e+00,6.125861689595454851e-02,0.000000000000000000e+00,-1.875946927285350582e-03,0.000000000000000000e+00
1.789989833735290192e+00,6.704233290081011709e-02,0.000000000000000000e+00,-2.002460698978223135e-03,0.000000000000000000e+00
1.810564429525350905e+00,7.335194653671534004e-02,0.000000000000000000e+00,-2.133297186250893325e-03,0.000000000000000000e+00
1.831139025315411839e+00,8.007822126356008152e-02,0.000000000000000000e+00,-2.268044803936862270e-03,0.000000000000000000e+00
1.851713621105472551e+00,8.711325128494344650e-02,0.000000000000000000e+00,-2.405359210966190840e-03,0.000000000000000000e+00
1.872288216895533264e+00,9.477923641782513842e-02,0.000000000000000000e+00,-2.544855780916360603e-03,0.000000000000000000e+00
1.892862812685594198e+00,1.026267444130355561e-01,0.000000000000000000e+00,-2.687049172601972593e-03,0.000000000000000000e+00
1.913437408475654911e+00,1.112052247571665153e-01,0.000000000000000000e+00,-2.826997908866432999e-03,0.000000000000000000e+00
1.934012004265715845e+00,1.199620320789652889e-01,0.000000000000000000e+00,-2.969855859136792068e-03,0.000000000000000000e+00
1.954586600055776557e+00,1.293596930551367541e-01,0.000000000000000000e+00,-3.106121057328594445e-03,0.000000000000000000e+00
1.975161195845837270e+00,1.389970732602049397e-01,0.000000000000000000e+00,-3.244294302875694574e-03,0.000000000000000000e+00
1.995735791635898204e+00,1.491826679697090263e-01,0.000000000000000000e+00,-3.371334096023858706e-03,0.000000000000000000e+00
2.016310387425959139e+00,1.596295547611743804e-01,0.000000000000000000e+00,-3.499019554226684425e-03,0.000000000000000000e+00
2.036884983216019851e+00,1.705496319740276157e-01,0.000000000000000000e+00,-3.609312736544194496e-03,0.000000000000000000e+00
2.057459579006080563e+00,1.817250124747606665e-01,0.000000000000000000e+00,-3.719006149567295576e-03,0.000000000000000000e+00
2.078034174796141276e+00,1.932765269013370923e-01,0.000000000000000000e+00,-3.804610295774108700e-03,0.000000000000000000e+00
2.098608770586202432e+00,2.050729502049938868e-01,0.000000000000000000e+00,-3.884280890068449871e-03,0.000000000000000000e+00
2.119183366376263145e+00,2.171303631231893405e-01,0.000000000000000000e+00,-3.940159056842117320e-03,0.000000000000000000e+00
2.139757962166323857e+00,2.293869935776870206e-01,0.000000000000000000e+00,-3.978473368609109113e-03,0.000000000000000000e+00
2.160332557956384569e+00,2.418444351189067421e-01,0.000000000000000000e+00,-3.997931069942074409e-03,0.000000000000000000e+00
2.180907153746445282e+00,2.543818904961472893e-01,0.000000000000000000e+00,-3.983166394445032850e-03,0.000000000000000000e+00
2.201481749536506438e+00,2.670787845097761237e-01,0.000000000000000000e+00,-3.951376172716805635e-03,0.000000000000000000e+00
2.222056345326567151e+00,2.797725734865104119e-01,0.000000000000000000e+00,-3.880439903421474632e-03,0.000000000000000000e+00
2.242630941116627863e+00,2.924832669856682332e-01,0.000000000000000000e+00,-3.778039648201084351e-03,0.000000000000000000e+00
2.263205536906688575e+00,3.052578744611628148e-01,0.000000000000000000e+00,-3.649651336757382247e-03,0.000000000000000000e+00
2.283780132696749288e+00,3.178625420245649869e-01,0.000000000000000000e+00,-3.471086846514716360e-03,0.000000000000000000e+00
2.304354728486810444e+00,3.304216874996631637e-01,0.000000000000000000e+00,-3.257439457075070495e-03,0.000000000000000000e+00
2.324929324276871156e+00,3.429487560720417827e-01,0.000000000000000000e+00,-3.009782244394433419e-03,0.000000000000000000e+00
2.345503920066931869e+00,3.552945876622399246e-01,0.000000000000000000e+00,-2.713616190910656065e-03,0.000000000000000000e+00
2.366078515856992581e+00,3.674957689913720404e-01,0.000000000000000000e+00,-2.372455513616038032e-03,0.000000000000000000e+00
2.386653111647053294e+00,3.796284126751238164e-01,0.000000000000000000e+00,-1.992866167897936261e-03,0.000000000000000000e+00
2.407227707437114450e+00,3.916844994091098764e-01,0.000000000000000000e+00,-1.573178394825750382e-03,0.000000000000000000e+00
2.427802303227175162e+00,4.035982571576226530e-01,0.000000000000000000e+00,-1.105192251525650635e-03,0.000000000000000000e+00
2.448376899017235875e+00,4.154619992907422343e-01,0.000000000000000000e+00,-5.955814251460218780e-04,0.000000000000000000e+00
2.468951494807296587e+00,4.273463759775334991e-01,0.000000000000000000e+00,-4.924455923308496174e-05,0.000000000000000000e+00
2.489526090597357744e+00,4.392905531603059077e-01,0.000000000000000000e+00,5.324105477707730561e-04,0.000000000000000000e+00
2.510100686387418456e+00,4.513461645576561376e-01,0.000000000000000000e+00,1.147024944956887655e-03,0.000000000000000000e+00
2.530675282177479168e+00,4.635766791649350571e-01,0.000000000000000000e+00,1.791257083243485764e-03,0.000000000000000000e+00
2.551249877967539881e+00,4.760682374363363056e-01,0.000000000000000000e+00,2.461110890469132319e-03,0.000000000000000000e+00
2.571824473757600593e+00,4.889031924397169160e-01,0.000000000000000000e+00,3.148470768482361081e-03,0.000000000000000000e+00
2.592399069547661750e+00,5.021513298935358360e-01,0.000000000000000000e+00,3.847349624432740232e-03,0.000000000000000000e+00
2.612973665337722462e+00,5.158798370202887229e-01,0.000000000000000000e+00,4.550786422491896743e-03,0.000000000000000000e+00
2.633548261127783174e+00,5.301488184931835157e-01,0.000000000000000000e+00,5.250884732522366483e-03,0.000000000000000000e+00
2.654122856917843887e+00,5.450068120087157020e-01,0.000000000000000000e+00,5.938865191568012958e-03,0.000000000000000000e+00
2.674697452707904599e+00,5.604868156702669246e-01,0.000000000000000000e+00,6.605135309769715780e-03,0.000000000000000000e+00
2.695272048497965756e+00,5.766032658979739489e-01,0.000000000000000000e+00,7.239380981907865033e-03,0.000000000000000000e+00
2.715846644288026468e+00,5.933502816630281673e-01,0.000000000000000000e+00,7.830681137351833826e-03,0.000000000000000000e+00
2.736421240078087180e+00,6.107013929170480582e-01,0.000000000000000000e+00,8.367638932326044651e-03,0.000000000000000000e+00
2.756995835868147893e+00,6.286109228019892692e-01,0.000000000000000000e+00,8.838536583548333922e-03,0.000000000000000000e+00
2.777570431658208605e+00,6.470169936588612281e-01,0.000000000000000000e+00,9.231518841868341721e-03,0.000000000000000000e+00
2.798145027448269762e+00,6.658459125832359993e-01,0.000000000000000000e+00,9.534798034258823787e-03,0.000000000000000000e+00
2.818719623238330474e+00,6.850032655357430889e-01,0.000000000000000000e+00,9.724494140011290949e-03,0.000000000000000000e+00
2.839294219028391186e+00,7.044050672626808174e-01,0.000000000000000000e+00,9.798257050434334980e-03,0.000000000000000000e+00
2.859868814818451899e+00,7.239816628680830757e-01,0.000000000000000000e+00,9.746974963119357099e-03,0.000000000000000000e+00
2.880443410608513055e+00,7.436796292923383289e-01,0.000000000000000000e+00,9.561875354114297842e-03,0.000000000000000000e+00
2.901018006398573768e+00,7.634682508183999738e-01,0.000000000000000000e+00,9.235591106838339850e-03,0.000000000000000000e+00
2.921592602188634480e+00,7.832942515137456541e-01,0.000000000000000000e+00,8.738737690917371820e-03,0.000000000000000000e+00
2.942167197978695192e+00,8.032471939133402072e-01,0.000000000000000000e+00,8.089223196478619385e-03,0.000000000000000000e+00
2.962741793768755905e+00,8.234011869521410398e-01,0.000000000000000000e+00,7.286962175153235792e-03,0.000000000000000000e+00
2.983316389558817061e+00,8.438589567980907535e-01,0.000000000000000000e+00,6.314403997688895591e-03,0.000000000000000000e+00
3.003890985348877773e+00,8.647864221478719360e-01,0.000000000000000000e+00,5.187135464060254469e-03,0.000000000000000000e+00
3.024465581138938486e+00,8.863494880694308131e-01,0.000000000000000000e+00,3.917014539256932423e-03,0.000000000000000000e+00
3.045040176928999198e+00,9.087956159586023652e-01,0.000000000000000000e+00,2.497510549223615033e-03,0.000000000000000000e+00
3.065614772719059911e+00,9.322236316174393744e-01,0.000000000000000000e+00,9.630674052807470728e-04,0.000000000000000000e+00
3.086189368509121067e+00,9.569237847840843525e-01,0.000000000000000000e+00,-6.834833260703350412e-04,0.000000000000000000e+00
3.106763964299181779e+00,9.828690433017477357e-01,0.000000000000000000e+00,-2.407169811768825572e-03,0.000000000000000000e+00
3.127338560089242492e+00,1.010285066671745335e+00,0.000000000000000000e+00,-4.185833425267529440e-03,0.000000000000000000e+00
3.147913155879303204e+00,1.039025767610674000e+00,0.000000000000000000e+00,-5.984123672821333416e-03,0.000000000000000000e+00
3.168487751669363917e+00,1.069096678309030546e+00,0.000000000000000000e+00,-7.763298934478724510e-03,0.000000000000000000e+00
3.189062347459425073e+00,1.100350052023620684e+00,0.000000000000000000e+00,-9.477076205797839784e-03,0.000000000000000000e+00
3.209636943249485785e+00,1.132605267067155141e+00,0.000000000000000000e+00,-1.108531395751900621e-02,0.000000000000000000e+00
3.230211539039546498e+00,1.165706051774793695e+00,0.000000000000000000e+00,-1.253185597828073046e-02,0.000000000000000000e+00
